Time,Altitude,Pressure,Temperature,DewPt,LICDew,RH,ReHuI,CN3025,CN7610,CN3025_corrected,PCTcon,PCcn01,PCcn02,PCcn03,PCcn04,PCcn05,PCcn06,PCcn07,PCcn08,PCcn09,PCcn10,PCcn11,PCcn12,PCcn13,PCcn14,PCcn15
191915,185,985.4,-0.9,-8.6,-3.8,57,59.7,395,380,,153.5,26.3,32.9,31.9,24.7,22,5.7,7.2,1.2,1,0.2,0.1,0,0.1,0.1,0
192115,1197,872.9,-6,-15.3,-17.4,50.4,53.5,355,377,,95.4,14.6,23.9,21.2,14.5,12.2,3.4,3.8,0.5,0.3,0.2,0.2,0.1,0.1,0.2,0.1
192315,2346,757.2,-10,-25.3,-37.4,28.5,31.5,321,356,,158,23.6,32.5,31.5,24,25.1,7.5,8.7,1.9,1.1,0.6,0.4,0.2,0.4,0.3,0.1
192515,3298,671.2,-14.7,-24.4,-25.4,45.7,53.1,402,404,,93.3,15.2,21.9,18.9,13.7,13.9,3.4,4,0.7,0.8,0.2,0.2,0.2,0.1,0.2,0
192715,4070,607.3,-17.3,-28.4,-29.3,39.5,47,242,303,,101.2,16.9,27.9,22.1,16.8,11.7,3,1.9,0.4,0.2,0.1,0,0.1,0.1,0.1,0
192915,4746,555.6,-20.8,-33,-33.8,33.9,41.8,277,365,,97.4,18.9,26.6,20.4,14.6,10.3,3,2.3,0.4,0.4,0.1,0.1,0.1,0.1,0,0
193115,5067,532.3,-23.1,-33.5,-36,39.5,49.7,345,435,,83.1,14.9,23.5,19,11.8,9.5,2.2,1.7,0.2,0.2,0,0,0,0,0.1,0
193315,5063,532.5,-23.1,-32.1,-35.9,45.3,57.1,331,425,,103.5,17.5,28.7,21.9,15.3,13.6,3.4,2.1,0.4,0.2,0.1,0.1,0,0.1,0,0
193515,5065,532.4,-23.2,-31.5,-35.7,48.3,60.9,346,447,,94.7,17,26.8,21.1,13.6,11.1,2.3,1.8,0.4,0.3,0,0.1,0,0,0,0
193715,5067,532.2,-23.3,-31.9,-35.7,46.7,58.9,304,395,,119.8,22.9,34.7,27.7,15.8,12.1,3.4,1.8,0.4,0.4,0.2,0.1,0.1,0.2,0,0
193915,5071,531.9,-23.3,-32.4,-36.4,45.1,56.9,309,410,,128.8,23.1,35.1,28,18.7,14.7,4.4,3.4,0.6,0.3,0.1,0.2,0.1,0.1,0,0
194115,5065,532.4,-23.3,-32.5,-36.3,44.5,56.1,307,409,,126.6,22.6,34.8,27.3,17.9,15.4,3.9,2.9,0.7,0.4,0.2,0.2,0,0.1,0,0.2
194315,5036,534.4,-23.2,-32.1,-35.7,45.7,57.5,299,394,,139.3,24.1,39.6,29,20.7,16.9,5,2.4,0.8,0.4,0.1,0.1,0.1,0.2,0,0
194515,5067,532.2,-23.4,-32.2,-36.1,45.8,57.8,290,393,,139.4,23,38.8,28.5,20.2,18.2,5,3.7,0.8,0.5,0.3,0.2,0.2,0,0.1,0
194715,5072,531.9,-23.3,-32.5,-36.4,44.1,55.6,290,393,,132.7,22.6,35.8,29.3,19,15.8,5,3.2,0.6,0.5,0.4,0.2,0.1,0.1,0.1,0.1
194915,5075,531.7,-23.2,-33.3,-37.1,40.4,50.9,290,391,,133.5,22.5,35.4,30.6,18.5,16.1,4.6,3.4,0.8,0.5,0.3,0.3,0.1,0.2,0.1,0
195115,5073,531.8,-23.1,-33.1,-36.9,40.8,51.3,274,370,,133,21.2,36.7,29.8,18.5,16.5,4.3,3.4,0.9,0.4,0.3,0.3,0.2,0.2,0.1,0
195315,5072,531.9,-22.9,-33.8,-37.5,37.5,47,261,349,,123.3,21.2,33,26.6,18.3,14.7,3.7,3.7,0.9,0.6,0.1,0.1,0,0.1,0.1,0
195515,5067,532.2,-22.9,-33.9,-37.7,37.2,46.7,280,376,,135.4,23.4,37.8,28.2,19.3,16.6,4,3.8,1.2,0.6,0.3,0.1,0.1,0.1,0.2,0
195715,5049,533.5,-22.7,-34.9,-38.5,33.3,41.8,300,404,,128.7,23.5,34.7,28.9,18.9,13.8,4,3,1.1,0.3,0.2,0.2,0.1,0,0,0.1
195915,5033,534.7,-22.7,-33.6,-37,37.7,47.3,373,475,,102.2,15.8,29.4,22.4,15.3,12.2,3,2.7,0.5,0.3,0.3,0.1,0.1,0,0,0
200115,5026,535.1,-22.9,-32.7,-36.6,42,52.8,399,518,,163.7,27.1,45.2,34.9,26,19,5.8,3.5,1.1,0.4,0.2,0.1,0,0.3,0,0
200315,5048,533.6,-22.7,-36.5,-49.4,28.9,36.2,322,408,,109.9,18.7,25.3,22.3,16.9,15.3,4.5,3.9,1,0.7,0.2,0.3,0.1,0.2,0.1,0.1
200515,5063,532.5,-22.6,-38.4,-52.3,23.1,28.9,261,351,,108.6,19.4,26.3,22.7,15.4,13.3,4.2,3.7,0.9,1,0.2,0.6,0.1,0.2,0.4,0.1
200715,5031,534.8,-22.5,-37.9,-48.6,24.3,30.4,312,412,,133.1,23.5,35.3,27.6,19.8,16,4.7,3.5,1.3,0.6,0.3,0.3,0.1,0,0.2,0
200915,4616,565.3,-20.6,-37.7,-44.8,20.7,25.5,295,369,,152.4,25,38.5,32.2,23.8,19.3,6,4.3,1,0.8,0.5,0.4,0.2,0.2,0.1,0
201115,4034,610.2,-17.7,-35.1,-40.2,21.4,25.6,464,548,,234.4,40.1,64.6,50.1,34.8,28.3,6.8,6.2,1.6,0.6,0.5,0.2,0.1,0.2,0.1,0
201315,3428,659.9,-14.5,-36.8,-51.6,13.9,16.1,445,493,,294.5,45.8,62.1,58.2,45.8,48.4,14.7,14.7,2.5,1,0.4,0.3,0,0.2,0.2,0.1
201515,2811,713.9,-13.1,-34.9,-41.5,14.7,16.8,609,634,,68.1,12.6,18.5,14.4,9.6,7.9,2,2,0.3,0.2,0.1,0.1,0.1,0.1,0,0.1
201715,2270,764.2,-9.7,-33,-37.4,13.6,15,395,413,,211.7,33.8,50.4,45.1,32.7,30.2,7.1,8.2,1.5,0.9,0.5,0.4,0.3,0.3,0.2,0.1
201915,1683,821.9,-6.8,-27.9,-30.6,18.9,20.3,355,360,,174.7,28.1,42.1,36.8,27.4,23.6,6.6,6.9,0.9,0.9,0.5,0.2,0.2,0.2,0.3,0.2
202115,1097,883,-5.3,-16.5,-17,42.7,45.1,395,404,,149.8,22.5,36.7,32.3,23,20.6,5.4,6.7,0.6,0.7,0.4,0.4,0.1,0.2,0.1,0.1
202315,526,946,-4.1,-13.4,-15.4,51.2,53.5,326,351,,127.3,16.6,33.7,31.5,21.3,15.7,3.8,3.5,0.3,0.3,0.2,0.1,0,0.1,0,0
202515,169,987.1,-7.8,-11.1,-11.8,82.7,89.7,149,160,,111,14.2,23.4,24.5,19.3,18.9,4.8,4.6,0.5,0.3,0.2,0.1,0,0,0.1,0
202715,192,984.3,-8.2,-9.6,-11,91.7,99.7,141,151,,116,15.7,25.7,24.6,19.4,19.4,5.2,4.6,0.6,0.4,0.1,0.1,0.1,0.1,0,0
202915,192,984.4,-8.2,-8.7,-10,98.7,107.3,137,149,,131.4,18.5,32.6,28,20.9,19.5,5.7,5.4,0.3,0.3,0.2,0,0,0,0.1,0
203115,176,986.2,-8.1,-9.1,-10.3,95,103.2,136,148,,123.2,16.6,27.4,27.7,19.4,20.5,5.4,5,0.7,0.3,0.2,0.1,0,0,0,0
203315,176,986.3,-8,-9.7,-10.6,90.2,97.8,151,161,,109.6,14.4,23.5,23.4,18.8,18.7,4.5,4.9,0.6,0.4,0.2,0.1,0,0.1,0.1,0
203515,175,986.3,-8,-9.1,-10.4,94.1,102.1,144,153,,108.6,13.2,24.2,24.3,18,17.9,4.9,4.8,0.6,0.3,0.1,0.1,0,0.1,0,0
203715,174,986.4,-8.1,-8.9,-10.2,96,104.2,170,183,,125.9,17.8,28.8,27.1,20.5,20.3,5.3,5,0.5,0.3,0.1,0.1,0.1,0.1,0,0
203915,173,986.6,-8.1,-8.6,-10.6,98.2,106.5,140,151,,130.1,18.2,29.8,27.8,22.1,20,5.5,5.5,0.6,0.2,0.2,0.1,0,0.1,0,0
204115,220,981.1,-7.2,-10.7,-25.9,82.7,89.4,14,8,,112.6,15.4,25.5,24.3,19.4,18.2,4.2,4.6,0.6,0.2,0.1,0.1,0.1,0.1,0,0
204315,1047,888.7,-5.1,-18.9,-22.2,37.1,39.1,1,0,,136,20.3,34.6,30.8,21.5,18.8,4.3,4,0.5,0.3,0.2,0.2,0.1,0.1,0.2,0
204515,1558,834.5,-6.2,-30.7,-34.7,12.7,13.5,139,194,,204.1,32.7,47.2,46.2,32.9,28.6,6.2,6.6,1,0.7,0.6,0.4,0.2,0.3,0.3,0.1
204715,1548,835.5,-6.4,-30.6,-33.8,13.1,14,301,318,,183.8,28.5,37.2,37.5,28.5,29,8.4,10,1.9,1.1,0.5,0.3,0.3,0.3,0.3,0.1
204915,1550,835.3,-6.5,-28.3,-31.7,16.4,17.6,308,318,,147.8,22.8,31.7,29.9,23.3,22.3,6.2,8.3,1.1,0.7,0.4,0.3,0.1,0.3,0.2,0.1
205115,1552,835.1,-6.7,-29.4,-33.3,15,16.1,303,314,,125.4,22.3,31.3,26.4,17.2,17.7,3.7,4.5,0.7,0.4,0.3,0.3,0.1,0.2,0.2,0.1
205315,1555,834.8,-6.7,-28,-31.4,17,18.3,315,325,,130.4,22.5,29.7,25.9,19.2,19,5.1,6,1.1,0.6,0.4,0.2,0.2,0.2,0.2,0.1
205515,1556,834.7,-6.7,-28.1,-31.5,16.9,18.1,325,334,,135,23.3,29,27.4,19.7,20.1,5.4,6.7,1.2,0.6,0.6,0.3,0.2,0.2,0.2,0.1
205715,1555,834.8,-6.6,-27.8,-31.4,17.2,18.4,344,352,,150.2,23.4,31.7,30.4,23.7,23.5,6.3,7.9,1.1,0.8,0.4,0.2,0.1,0.2,0.2,0.1
205915,1553,835,-6.4,-28.6,-32.7,15.8,16.8,345,355,,186.8,28.8,38.2,37.5,28.4,30.5,9,10.6,1.5,1,0.4,0.2,0.1,0.3,0.1,0.1
210115,1555,834.8,-6.2,-29.1,-34,14.8,15.8,323,334,,218.2,31.5,43.7,42.4,34.7,36.6,10.2,13.8,2.1,1.1,0.7,0.5,0.2,0.3,0.3,0.2
210315,1554,834.9,-6.2,-30.1,-36.4,13.4,14.2,251,260,,149,24,34.7,31.8,22.6,19.9,4.8,7.2,1,0.9,0.5,0.6,0.2,0.4,0.4,0.1
210515,1555,834.8,-6,-29.7,-33.9,13.7,14.6,431,447,,256.4,40.7,59.7,57.6,40.6,37,8.3,8.2,1.2,0.9,0.5,0.4,0.2,0.4,0.3,0.2
210715,1558,834.5,-6,-25.9,-27.6,20.3,21.7,365,378,,215.7,34.8,46.1,44.5,33.5,32.8,8,10.2,1.8,1.5,0.7,0.6,0.2,0.4,0.3,0.2
210915,1555,834.8,-6,-20.9,-23.6,30.6,32.6,405,421,,89.1,16.4,22.9,18.2,12.5,11,2.4,3.5,0.5,0.6,0.3,0.2,0.1,0.1,0.2,0.1
211115,1558,834.5,-6.1,-21.1,-23.9,30.2,32.2,423,426,,123,21.1,28.4,25,18,17.2,4.5,5.6,0.9,0.7,0.3,0.4,0.2,0.3,0.2,0.1
211315,1559,834.4,-6,-26.9,-32.1,18.4,19.6,419,439,,253.3,39.6,58,54.4,42.3,36.6,8.5,9.5,1.3,0.9,0.6,0.6,0.2,0.4,0.3,0.1
211515,1560,834.3,-6.1,-29.5,-35.8,14.2,15.1,273,280,,166.7,27.1,38.4,34.2,25.5,23.4,6,7.6,1.1,1.1,0.6,0.6,0.2,0.3,0.3,0.2
211715,1561,834.2,-6.4,-29.2,-33.5,14.8,15.8,311,329,,211.8,30.6,43.3,42.6,33.8,34.5,9.6,12.5,1.8,1,0.5,0.4,0.2,0.4,0.3,0.2
211915,1560,834.3,-6.5,-29.7,-33,14.3,15.3,327,340,,158.4,25.3,36.6,31.8,24.5,23.3,6.1,7.7,1.1,0.5,0.4,0.3,0.2,0.2,0.2,0.2
212115,1561,834.1,-6.7,-30.5,-33.3,13.4,14.4,330,340,,134.4,23.6,31.2,27.9,19.9,18.8,4.6,5.7,0.8,0.5,0.4,0.3,0.1,0.3,0.2,0
212315,1563,834,-6.6,-28.9,-34.1,15.7,16.8,329,344,,137.9,24,33.7,28.7,20.3,19.1,4.4,5.4,0.8,0.6,0.4,0.2,0.1,0.2,0.2,0.1
212515,1564,833.8,-6.6,-29.1,-38,15.2,16.3,309,322,,108.4,19,27,24.9,15.6,14.1,3.1,2.8,0.4,0.4,0.3,0.2,0.1,0.2,0.1,0.1
212715,1564,833.8,-6.6,-28.3,-31,16.5,17.7,265,279,,148.2,24.5,32.5,29.8,22.9,21.7,5.8,6.9,1.1,0.9,0.6,0.5,0.2,0.3,0.3,0.2
212915,1212,870.8,-5.7,-29,-31.5,14.3,15.2,276,295,,160,25.8,35.8,33.3,24.7,23.7,6,7.5,1,0.6,0.5,0.3,0.2,0.3,0.2,0.1
213115,503,948.5,-4.7,-28.2,-30.4,14.3,15,289,319,,91.3,15,22.2,19.4,14.7,12.9,3,3,0.4,0.3,0.1,0,0,0,0.1,0.1
213315,465,952.7,-4.8,-26.3,-29.4,17.2,18.1,1135,334,,73.3,11,18,16,11.7,10.8,2.6,2.4,0.3,0.3,0.1,0,0,0,0.1,0
213515,429,956.9,-6.1,-22.9,-26,31.3,33.3,249,272,,96.5,14.8,23.8,21,14.7,13.4,3.8,3.3,0.6,0.3,0.2,0.1,0.1,0.2,0.2,0.2
213715,203,983.1,-9.2,-9.8,-18.2,96.7,105.9,128,141,,136.3,21.3,33.6,28.1,21.7,20.2,4.9,4.9,0.5,0.3,0.2,0.1,0,0.1,0.1,0.2
213915,252,977.3,-9.1,-9.6,-11.2,96.8,105.8,122,136,,115.6,16.8,28.2,24.5,17.9,17.2,4.4,4.6,0.5,0.3,0.1,0.2,0.1,0.3,0.4,0.3
214115,325,968.9,-9,-10.7,-12.3,89.2,97.7,133,147,,110.4,16.9,27.3,22.6,17.2,16,4.2,4.1,0.5,0.4,0.2,0.2,0,0.2,0.3,0.3
214315,332,968.1,-9.5,-9.3,-10.7,99.8,109.2,108,121,,89.8,12.8,21.2,18.9,13.9,12.9,3.3,3.6,0.4,0.4,0.2,0.4,0.2,0.4,0.6,0.7
214515,332,968,-9.3,-10.6,-12.4,92.4,101.4,132,148,,117,17.8,27.3,24.6,18.6,17.7,4.9,4.3,0.5,0.3,0.2,0.1,0.1,0.2,0.3,0.2
214715,325,968.8,-8.4,-13.1,-16.9,72.7,79.2,150,165,,121.1,17.3,29.9,25.6,19.2,18.5,4.6,4.4,0.5,0.4,0.2,0.1,0.1,0.1,0.1,0.1
214915,319,969.6,-7.9,-15,-18.3,60.1,65.2,230,238,,130.3,20.5,31.9,28.9,20.4,18,4.5,4.5,0.6,0.4,0.1,0.1,0,0.1,0.1,0.1
215115,330,968.3,-8.5,-13.1,-15.2,72.8,79.4,150,170,,126.5,17.7,30,27.7,20.3,19,5.4,5.1,0.5,0.2,0.1,0.1,0,0.1,0.1,0.1
215315,402,960,-8.1,-14.3,-28.7,72,78.8,174,190,,101.6,14.2,23,21.9,16.6,16.2,3.9,3.9,0.4,0.3,0.2,0.2,0.1,0.1,0.3,0.2
215515,1421,849.2,-6.6,-29.5,-32.4,14.7,15.7,257,277,,95.1,15.1,20.5,19.5,14.5,15,3.5,4.3,0.8,0.4,0.4,0.3,0.1,0.2,0.2,0.2
215715,2667,727.4,-11,-28.5,-31.7,24.2,27.1,292,341,,106.6,17.5,23.6,21.4,15.6,15.7,4.2,5.3,1,0.8,0.5,0.4,0.2,0.2,0.2,0.1
215915,3489,654.7,-14.8,-20.8,-23.4,62.5,72.4,500,447,,81.2,15.5,22.6,18.5,11.7,9.3,1.6,1.4,0.4,0.1,0.1,0,0,0,0,0
220115,3536,650.7,-14.7,-19.7,-22.6,67.6,78.3,288,338,,135.3,24.5,38.4,30,19.6,15.8,3.7,2.4,0.2,0.2,0.2,0.1,0,0,0,0
220315,3529,651.2,-14.6,-20.9,-23.6,60.5,70,263,310,,132.2,23.8,37.3,28.8,19.1,16.2,3.8,2.6,0.2,0.2,0.1,0.1,0,0,0,0
220515,3534,650.9,-14.5,-21.6,-24.6,56.4,65.2,226,265,,109,20.7,31.6,23.8,15.5,12,2.8,1.9,0.2,0.2,0.1,0.1,0,0,0,0
220715,3532,651,-14.2,-23,-26.1,48.7,56.2,191,221,,78.9,14.8,22.8,18.2,11.2,8.1,1.9,1.3,0.2,0.2,0.1,0,0,0,0,0
220915,3537,650.6,-14.1,-22.4,-25.2,50.8,58.5,129,149,,40.6,7.6,12.7,10,4.9,3.7,0.9,0.4,0.1,0.1,0.1,0.1,0.1,0,0,0
221115,3539,650.4,-14.3,-22.2,-25,52.9,61,119,135,,36.7,7.7,10.9,8.9,4.9,2.9,0.6,0.6,0,0.1,0,0,0,0,0,0
221315,3547,649.7,-14.4,-21.8,-24.7,55.2,63.8,90,104,,16.6,3.6,4.8,4,2,1.7,0.3,0.2,0.1,0,0,0,0,0,0,0
221515,3429,659.8,-14.2,-21.6,-24.4,55,63.4,272,262,,61.5,11.5,18.3,14.3,8.2,6.7,1.1,1,0.1,0.1,0.1,0.1,0,0,0,0
221715,2913,704.7,-12.6,-22.2,-26,46.4,52.7,275,300,,153.3,24.2,33.7,31.7,23.5,21.6,5.9,7.7,1.5,1,0.7,0.5,0.3,0.4,0.2,0.3
221915,2611,732,-10.9,-32.6,-38.7,15.5,17.4,365,391,,275.6,40.6,55.2,51.3,42,42.5,13.4,17,4.1,3.2,1.8,1.4,0.6,1.1,1,0.6
222115,2612,731.9,-10.9,-33.6,-37.4,13.9,15.5,340,366,,234,33.8,47.5,45.2,35.4,36.8,11.3,13.6,2.7,2.4,1.5,1.2,0.5,0.8,0.8,0.6
222315,2627,730.6,-10.9,-31.9,-34.5,16.7,18.7,307,328,,216.3,32.3,45.1,41.9,33.9,32.2,10.6,11.7,2.4,2.1,1.1,0.9,0.5,0.6,0.6,0.2
222515,2626,730.7,-10.9,-27.3,-30.4,25.5,28.5,262,288,,190.4,27.4,39.9,37.5,30,29.4,8.5,10.5,2.1,1.7,1.3,0.6,0.3,0.5,0.5,0.2
222715,2610,732.1,-10.9,-30.8,-34.2,18.3,20.4,297,321,,222.7,32.6,46.1,42.9,34,35.1,10.5,13,2.2,2.1,1.3,0.8,0.6,0.7,0.5,0.2
222915,2516,740.9,-10.5,-29.5,-33.6,20.6,22.9,334,358,,195.4,28.3,42,39.2,28.9,30.7,9.2,10.7,1.6,1.3,0.9,0.8,0.4,0.7,0.5,0.2
223115,1938,796.5,-7.8,-31.7,-34.9,13,14.1,339,349,,226.5,33,49.2,45.6,34.2,36,10.4,12.5,2.2,1.2,0.7,0.6,0.2,0.3,0.3,0.1
223315,1323,859,-5.4,-20.8,-22.6,31.1,32.8,353,372,,172.2,27.1,39.9,35.3,27.2,24.6,6.1,7.7,1.3,1,0.6,0.5,0.2,0.4,0.3,0.1
223515,857,909,-5.1,-10.6,-11.9,67.3,71,334,351,,167.6,25.3,44.6,39.7,25.7,21.4,4.9,4.7,0.4,0.3,0.2,0.1,0.1,0.1,0,0.1
223715,683,928.2,-3.7,-8.8,-9.9,69.4,72.2,300,319,,150.9,22.4,39.5,36.3,23,19.4,5,4.2,0.4,0.3,0.1,0.1,0.1,0,0.1,0
223915,595,938.1,-2.8,-8.8,-9.9,65.1,67.1,306,325,,152.3,22.6,40.7,36.1,24.4,19,4.2,4.2,0.5,0.2,0.2,0.2,0,0.1,0.1,0
224115,343,966.8,-0.8,-8.2,-9.3,58,58.7,363,368,,150.9,21.9,39.2,35.9,23.8,20.1,4.6,4,0.5,0.4,0.1,0.1,0.1,0.1,0.1,0.1
